# 6
# wavenum, a0, a1, a2, maxerr, temp(maxerr)
# fit to xsec vs ((T-100)/10)^2
 49000.5  3.317E-11 -6.194E-09  3.146E-07  0.46  200.
 49001.0  2.821E-11 -5.045E-09  2.531E-07  0.36  200.
 49001.5  2.484E-11 -4.256E-09  2.108E-07  0.29  200.
 49002.0  2.310E-11 -3.838E-09  1.880E-07  0.25  200.
 49002.5  2.232E-11 -3.642E-09  1.772E-07  0.23  200.
 49003.0  2.251E-11 -3.680E-09  1.790E-07  0.23  200.
 49003.5  2.309E-11 -3.792E-09  1.843E-07  0.24  200.
 49004.0  2.436E-11 -4.058E-09  1.979E-07  0.26  200.
 49004.5  2.706E-11 -4.659E-09  2.293E-07  0.31  200.
 49005.0  3.015E-11 -5.337E-09  2.644E-07  0.36  200.
 49005.5  3.197E-11 -5.706E-09  2.831E-07  0.37  200.
 49006.0  3.176E-11 -5.586E-09  2.755E-07  0.35  200.
 49006.5  3.101E-11 -5.326E-09  2.603E-07  0.31  200.
 49007.0  2.966E-11 -4.906E-09  2.363E-07  0.26  200.
 49007.5  2.889E-11 -4.603E-09  2.182E-07  0.21  200.
 49008.0  2.929E-11 -4.566E-09  2.141E-07  0.19  200.
 49008.5  3.025E-11 -4.631E-09  2.149E-07  0.17  200.
 49009.0  3.211E-11 -4.898E-09  2.266E-07  0.17  200.
 49009.5  3.440E-11 -5.222E-09  2.403E-07  0.17  200.
 49010.0  3.713E-11 -5.597E-09  2.558E-07  0.16  200.
 49010.5  4.115E-11 -6.255E-09  2.864E-07  0.17  200.
 49011.0  4.585E-11 -6.981E-09  3.188E-07  0.17  200.
 49011.5  5.199E-11 -7.969E-09  3.640E-07  0.18  200.
 49012.0  6.034E-11 -9.361E-09  4.288E-07  0.19  200.
 49012.5  7.202E-11 -1.137E-08  5.232E-07  0.21  200.
 49013.0  8.879E-11 -1.434E-08  6.649E-07  0.24  200.
 49013.5  1.123E-10 -1.852E-08  8.634E-07  0.27  200.
 49014.0  1.380E-10 -2.287E-08  1.067E-06  0.28  200.
 49014.5  1.603E-10 -2.595E-08  1.197E-06  0.25  200.
 49015.0  1.889E-10 -2.956E-08  1.341E-06  0.21  200.
 49015.5  2.308E-10 -3.441E-08  1.522E-06  0.16  200.
 49016.0  3.130E-10 -4.508E-08  1.953E-06  0.13  200.
 49016.5  4.832E-10 -6.875E-08  2.956E-06  0.12  200.
 49017.0  8.716E-10 -1.226E-07  5.221E-06  0.12  200.
 49017.5  2.021E-09 -2.850E-07  1.216E-05  0.12  200.
 49018.0  5.335E-09 -7.459E-07  3.163E-05  0.12  200.
 49018.5  5.166E-09 -7.258E-07  3.090E-05  0.12  200.
 49019.0  2.700E-09 -3.782E-07  1.607E-05  0.12  200.
 49019.5  1.091E-09 -1.535E-07  6.548E-06  0.12  200.
 49020.0  5.662E-10 -7.977E-08  3.408E-06  0.12  200.
 49020.5  3.550E-10 -5.003E-08  2.140E-06  0.12  200.
 49021.0  2.555E-10 -3.637E-08  1.568E-06  0.13  200.
 49021.5  1.999E-10 -2.842E-08  1.226E-06  0.12  200.
 49022.0  1.738E-10 -2.513E-08  1.095E-06  0.14  200.
 49022.5  1.598E-10 -2.307E-08  1.005E-06  0.13  200.
 49023.0  1.631E-10 -2.400E-08  1.055E-06  0.15  200.
 49023.5  1.756E-10 -2.584E-08  1.132E-06  0.14  200.
 49024.0  2.098E-10 -3.114E-08  1.367E-06  0.15  200.
 49024.5  2.774E-10 -4.149E-08  1.822E-06  0.16  200.
 49025.0  4.154E-10 -6.249E-08  2.742E-06  0.16  200.
 49025.5  7.444E-10 -1.126E-07  4.938E-06  0.17  200.
 49026.0  1.739E-09 -2.622E-07  1.144E-05  0.16  200.
 49026.5  4.585E-09 -6.932E-07  3.026E-05  0.17  200.
 49027.0  3.805E-09 -5.761E-07  2.516E-05  0.17  200.
 49027.5  2.732E-09 -4.130E-07  1.804E-05  0.17  200.
 49028.0  1.077E-09 -1.635E-07  7.175E-06  0.17  200.
 49028.5  5.221E-10 -7.974E-08  3.533E-06  0.18  200.
 49029.0  3.131E-10 -4.785E-08  2.137E-06  0.18  200.
 49029.5  2.134E-10 -3.263E-08  1.473E-06  0.17  200.
 49030.0  1.582E-10 -2.424E-08  1.111E-06  0.18  200.
 49030.5  1.218E-10 -1.844E-08  8.583E-07  0.16  200.
 49031.0  9.695E-11 -1.434E-08  6.796E-07  0.14  200.
 49031.5  8.020E-11 -1.156E-08  5.648E-07  0.12  200.
 49032.0  6.830E-11 -9.494E-09  4.859E-07  0.11  200.
 49032.5  5.921E-11 -7.722E-09  4.260E-07  0.09  200.
 49033.0  5.233E-11 -6.069E-09  3.833E-07  0.07  200.
 49033.5  4.658E-11 -4.139E-09  3.517E-07  0.05  200.
 49034.0  4.128E-11 -1.082E-09  3.268E-07  0.03  200.
 49034.5  3.442E-11  6.140E-09  3.168E-07  0.01  220.
 49035.0  1.198E-11  4.251E-08  2.679E-07  0.00  220.
 49035.5 -1.389E-09  2.167E-06  5.492E-07  0.00  200.
 49036.0 -5.328E-11  1.714E-07 -3.171E-08  0.00  220.
 49036.5 -3.260E-12  6.280E-08  1.945E-07  0.00  220.
 49037.0  2.510E-11  7.859E-09  2.287E-07  0.01  200.
 49037.5  2.781E-11  1.133E-09  2.138E-07  0.02  200.
 49038.0  2.879E-11 -1.211E-09  2.102E-07  0.03  200.
 49038.5  2.895E-11 -2.233E-09  2.039E-07  0.04  200.
 49039.0  2.910E-11 -2.795E-09  2.005E-07  0.05  200.
 49039.5  2.914E-11 -3.101E-09  1.960E-07  0.06  200.
 49040.0  2.927E-11 -3.282E-09  1.908E-07  0.06  200.
 49040.5  2.985E-11 -3.506E-09  1.921E-07  0.07  200.
 49041.0  3.043E-11 -3.664E-09  1.929E-07  0.07  200.
 49041.5  3.118E-11 -3.822E-09  1.951E-07  0.07  200.
 49042.0  3.213E-11 -3.986E-09  1.986E-07  0.07  200.
 49042.5  3.323E-11 -4.136E-09  2.015E-07  0.08  200.
 49043.0  3.491E-11 -4.403E-09  2.115E-07  0.07  200.
 49043.5  3.645E-11 -4.576E-09  2.160E-07  0.08  200.
 49044.0  3.886E-11 -4.943E-09  2.316E-07  0.08  200.
 49044.5  4.124E-11 -5.218E-09  2.413E-07  0.08  200.
 49045.0  4.457E-11 -5.678E-09  2.609E-07  0.08  200.
 49045.5  4.796E-11 -6.046E-09  2.742E-07  0.07  200.
 49046.0  5.265E-11 -6.660E-09  3.010E-07  0.08  200.
 49046.5  5.823E-11 -7.354E-09  3.296E-07  0.08  200.
 49047.0  6.535E-11 -8.231E-09  3.670E-07  0.08  200.
 49047.5  7.406E-11 -9.276E-09  4.104E-07  0.08  200.
 49048.0  8.556E-11 -1.069E-08  4.728E-07  0.07  200.
 49048.5  1.006E-10 -1.252E-08  5.517E-07  0.07  200.
 49049.0  1.210E-10 -1.490E-08  6.526E-07  0.07  200.
 49049.5  1.496E-10 -1.823E-08  7.988E-07  0.07  200.
 49050.0  1.950E-10 -2.387E-08  1.059E-06  0.07  200.
 49050.5  2.619E-10 -3.112E-08  1.388E-06  0.06  200.
 49051.0  3.785E-10 -4.296E-08  1.981E-06  0.06  200.
 49051.5  6.060E-10 -5.329E-08  2.950E-06  0.04  200.
 49052.0  1.178E-09  2.823E-07 -1.096E-06  0.00  260.
 49052.5  2.653E-09 -3.000E-07  1.368E-05  0.05  200.
 49053.0  6.663E-09 -4.463E-07  3.013E-05  0.03  200.
 49053.5  5.876E-09 -7.431E-07  3.092E-05  0.07  200.
 49054.0  2.690E-09 -3.412E-07  1.415E-05  0.08  200.
 49054.5  1.149E-09 -1.464E-07  6.121E-06  0.08  200.
 49055.0  6.333E-10 -8.077E-08  3.387E-06  0.08  200.
 49055.5  4.199E-10 -5.386E-08  2.272E-06  0.08  200.
 49056.0  3.194E-10 -4.129E-08  1.748E-06  0.08  200.
 49056.5  2.730E-10 -3.572E-08  1.517E-06  0.09  200.
 49057.0  2.607E-10 -3.471E-08  1.481E-06  0.10  200.
 49057.5  2.743E-10 -3.697E-08  1.579E-06  0.10  200.
 49058.0  3.224E-10 -4.386E-08  1.869E-06  0.10  200.
 49058.5  4.295E-10 -5.892E-08  2.506E-06  0.11  200.
 49059.0  6.707E-10 -9.314E-08  3.967E-06  0.11  200.
 49059.5  1.290E-09 -1.804E-07  7.685E-06  0.11  200.
 49060.0  3.344E-09 -4.692E-07  1.998E-05  0.12  200.
 49060.5  6.335E-09 -8.843E-07  3.750E-05  0.11  200.
 49061.0  4.557E-09 -6.373E-07  2.707E-05  0.12  200.
 49061.5  2.253E-09 -3.142E-07  1.333E-05  0.11  200.
 49062.0  9.469E-10 -1.322E-07  5.624E-06  0.12  200.
 49062.5  5.121E-10 -7.129E-08  3.039E-06  0.11  200.
 49063.0  3.254E-10 -4.498E-08  1.916E-06  0.11  200.
 49063.5  2.327E-10 -3.251E-08  1.402E-06  0.12  200.
 49064.0  1.759E-10 -2.443E-08  1.055E-06  0.11  200.
 49064.5  1.404E-10 -1.952E-08  8.484E-07  0.12  200.
 49065.0  1.171E-10 -1.636E-08  7.171E-07  0.12  200.
 49065.5  1.015E-10 -1.431E-08  6.330E-07  0.12  200.
 49066.0  9.148E-11 -1.316E-08  5.909E-07  0.14  200.
 49066.5  8.597E-11 -1.278E-08  5.862E-07  0.16  200.
 49067.0  8.534E-11 -1.331E-08  6.256E-07  0.20  200.
 49067.5  9.046E-11 -1.503E-08  7.241E-07  0.27  200.
 49068.0  9.662E-11 -1.689E-08  8.301E-07  0.35  200.
 49068.5  9.356E-11 -1.646E-08  8.120E-07  0.36  200.
 49069.0  8.297E-11 -1.422E-08  6.977E-07  0.31  200.
 49069.5  7.065E-11 -1.149E-08  5.554E-07  0.24  200.
 49070.0  6.231E-11 -9.628E-09  4.586E-07  0.19  200.
 49070.5  5.723E-11 -8.477E-09  3.984E-07  0.16  200.
 49071.0  5.487E-11 -7.934E-09  3.703E-07  0.15  200.
 49071.5  5.435E-11 -7.809E-09  3.647E-07  0.14  200.
 49072.0  5.540E-11 -7.994E-09  3.744E-07  0.14  200.
 49072.5  5.818E-11 -8.552E-09  4.037E-07  0.15  200.
 49073.0  6.391E-11 -9.776E-09  4.683E-07  0.18  200.
 49073.5  7.101E-11 -1.127E-08  5.462E-07  0.22  200.
 49074.0  7.509E-11 -1.199E-08  5.826E-07  0.22  200.
 49074.5  7.525E-11 -1.171E-08  5.649E-07  0.20  200.
 49075.0  7.392E-11 -1.095E-08  5.180E-07  0.16  200.
 49075.5  7.241E-11 -1.004E-08  4.624E-07  0.12  200.
 49076.0  7.395E-11 -9.761E-09  4.395E-07  0.10  200.
 49076.5  7.812E-11 -9.980E-09  4.429E-07  0.08  200.
 49077.0  8.482E-11 -1.057E-08  4.620E-07  0.08  200.
 49077.5  9.416E-11 -1.152E-08  4.973E-07  0.07  200.
 49078.0  1.071E-10 -1.295E-08  5.534E-07  0.06  200.
 49078.5  1.250E-10 -1.509E-08  6.416E-07  0.06  200.
 49079.0  1.478E-10 -1.742E-08  7.259E-07  0.06  200.
 49079.5  1.847E-10 -2.190E-08  9.100E-07  0.06  200.
 49080.0  2.373E-10 -2.796E-08  1.151E-06  0.06  200.
 49080.5  3.219E-10 -3.777E-08  1.542E-06  0.05  200.
 49081.0  4.702E-10 -5.489E-08  2.220E-06  0.06  200.
 49081.5  7.699E-10 -8.956E-08  3.593E-06  0.05  200.
 49082.0  1.502E-09 -1.748E-07  6.989E-06  0.05  200.
 49082.5  3.776E-09 -4.376E-07  1.735E-05  0.05  200.
 49083.0  7.663E-09 -8.914E-07  3.543E-05  0.05  200.
 49083.5  5.258E-09 -6.121E-07  2.438E-05  0.06  200.
 49084.0  2.132E-09 -2.496E-07  1.002E-05  0.06  200.
 49084.5  1.020E-09 -1.189E-07  4.794E-06  0.05  200.
 49085.0  6.323E-10 -7.415E-08  3.047E-06  0.06  200.
 49085.5  4.730E-10 -5.589E-08  2.353E-06  0.06  200.
 49086.0  4.128E-10 -4.884E-08  2.094E-06  0.06  200.
 49086.5  4.198E-10 -5.020E-08  2.197E-06  0.06  200.
 49087.0  4.945E-10 -5.977E-08  2.657E-06  0.06  200.
 49087.5  6.897E-10 -8.487E-08  3.799E-06  0.07  200.
 49088.0  1.165E-09 -1.442E-07  6.394E-06  0.07  200.
 49088.5  2.607E-09 -3.270E-07  1.429E-05  0.07  200.
 49089.0  6.764E-09 -8.482E-07  3.673E-05  0.07  200.
 49089.5  6.223E-09 -7.017E-07  3.711E-05  0.05  200.
 49090.0  2.001E-09  1.581E-06  6.585E-05  0.01  200.
 49090.5  1.257E-10  1.319E-06  4.330E-05  0.01  220.
 49091.0  8.046E-10 -5.842E-08  6.463E-06  0.03  200.
 49091.5  4.710E-10 -4.783E-08  3.154E-06  0.05  200.
 49092.0  3.184E-10 -3.435E-08  2.003E-06  0.05  200.
 49092.5  2.353E-10 -2.603E-08  1.433E-06  0.05  200.
 49093.0  1.852E-10 -2.082E-08  1.105E-06  0.05  200.
 49093.5  1.528E-10 -1.741E-08  9.017E-07  0.06  200.
 49094.0  1.298E-10 -1.485E-08  7.544E-07  0.06  200.
 49094.5  1.137E-10 -1.308E-08  6.556E-07  0.06  200.
 49095.0  1.021E-10 -1.183E-08  5.864E-07  0.06  200.
 49095.5  9.341E-11 -1.086E-08  5.341E-07  0.06  200.
 49096.0  8.750E-11 -1.027E-08  5.031E-07  0.06  200.
 49096.5  8.325E-11 -9.844E-09  4.802E-07  0.06  200.
 49097.0  8.062E-11 -9.594E-09  4.652E-07  0.07  200.
 49097.5  7.943E-11 -9.536E-09  4.613E-07  0.07  200.
 49098.0  7.950E-11 -9.634E-09  4.658E-07  0.07  200.
 49098.5  8.147E-11 -1.006E-08  4.873E-07  0.08  200.
 49099.0  8.515E-11 -1.074E-08  5.213E-07  0.09  200.
 49099.5  9.202E-11 -1.207E-08  5.923E-07  0.10  200.
 49100.0  1.030E-10 -1.415E-08  6.995E-07  0.12  200.
 49100.5  1.213E-10 -1.771E-08  8.844E-07  0.14  200.
 49101.0  1.510E-10 -2.366E-08  1.197E-06  0.19  200.
 49101.5  1.886E-10 -3.114E-08  1.591E-06  0.23  200.
 49102.0  2.073E-10 -3.398E-08  1.747E-06  0.22  200.
 49102.5  2.048E-10 -3.162E-08  1.647E-06  0.17  200.
 49103.0  1.964E-10 -2.707E-08  1.456E-06  0.12  200.
 49103.5  1.903E-10 -2.105E-08  1.245E-06  0.07  200.
 49104.0  1.993E-10 -1.360E-08  1.184E-06  0.03  200.
 49104.5  2.129E-10  2.116E-08  1.300E-06  0.01  200.
 49105.0 -3.456E-10  1.172E-06 -1.605E-06  0.00  200.
 49105.5  3.515E-10  5.040E-08  1.872E-06  0.01  200.
 49106.0  4.392E-10  3.151E-07  1.792E-06  0.00  200.
 49106.5  1.013E-09 -9.092E-08  4.329E-06  0.03  200.
 49107.0  2.178E-09 -2.238E-07  8.880E-06  0.04  200.
 49107.5  5.663E-09 -5.897E-07  2.261E-05  0.03  200.
 49108.0  6.851E-09 -7.184E-07  2.754E-05  0.04  200.
 49108.5  3.282E-09 -3.450E-07  1.328E-05  0.03  200.
 49109.0  1.424E-09 -1.488E-07  5.743E-06  0.03  200.
 49109.5  8.566E-10 -9.217E-08  3.646E-06  0.04  200.
 49110.0  6.610E-10 -7.209E-08  2.862E-06  0.04  200.
 49110.5  6.421E-10 -7.149E-08  2.858E-06  0.04  200.
 49111.0  7.748E-10 -8.780E-08  3.508E-06  0.05  200.
 49111.5  1.178E-09 -1.352E-07  5.387E-06  0.05  200.
 49112.0  2.376E-09 -2.760E-07  1.101E-05  0.05  200.
 49112.5  6.222E-09 -7.214E-07  2.861E-05  0.05  200.
 49113.0  7.622E-09 -8.834E-07  3.504E-05  0.05  200.
 49113.5  4.542E-09 -5.308E-07  2.119E-05  0.05  200.
 49114.0  1.819E-09 -2.110E-07  8.404E-06  0.05  200.
 49114.5  9.277E-10 -1.097E-07  4.447E-06  0.06  200.
 49115.0  5.830E-10 -7.081E-08  2.941E-06  0.07  200.
 49115.5  4.192E-10 -5.260E-08  2.232E-06  0.08  200.
 49116.0  3.234E-10 -4.149E-08  1.792E-06  0.09  200.
 49116.5  2.587E-10 -3.338E-08  1.455E-06  0.09  200.
 49117.0  2.147E-10 -2.761E-08  1.209E-06  0.09  200.
 49117.5  1.815E-10 -2.302E-08  1.010E-06  0.09  200.
 49118.0  1.534E-10 -1.852E-08  7.976E-07  0.07  200.
 49118.5  1.375E-10 -1.630E-08  7.017E-07  0.07  200.
 49119.0  1.258E-10 -1.452E-08  6.202E-07  0.06  200.
 49119.5  1.188E-10 -1.350E-08  5.749E-07  0.05  200.
 49120.0  1.143E-10 -1.271E-08  5.377E-07  0.05  200.
 49120.5  1.129E-10 -1.238E-08  5.224E-07  0.05  200.
 49121.0  1.143E-10 -1.243E-08  5.245E-07  0.05  200.
 49121.5  1.174E-10 -1.253E-08  5.222E-07  0.04  200.
 49122.0  1.240E-10 -1.310E-08  5.434E-07  0.04  200.
 49122.5  1.336E-10 -1.387E-08  5.678E-07  0.04  200.
 49123.0  1.473E-10 -1.505E-08  6.096E-07  0.03  200.
 49123.5  1.704E-10 -1.760E-08  7.144E-07  0.04  200.
 49124.0  2.013E-10 -2.054E-08  8.228E-07  0.04  200.
 49124.5  2.479E-10 -2.504E-08  9.917E-07  0.03  200.
 49125.0  3.242E-10 -3.239E-08  1.264E-06  0.03  200.
 49125.5  4.579E-10 -4.544E-08  1.757E-06  0.03  200.
 49126.0  7.242E-10 -7.067E-08  2.673E-06  0.03  200.
 49126.5  1.391E-09 -1.364E-07  5.140E-06  0.03  200.
 49127.0  3.406E-09 -3.296E-07  1.225E-05  0.03  200.
 49127.5  6.232E-09 -5.958E-07  2.188E-05  0.03  200.
 49128.0  3.862E-09 -3.745E-07  1.395E-05  0.02  200.
 49128.5  1.687E-09 -1.642E-07  6.135E-06  0.03  200.
 49129.0  1.067E-09 -1.075E-07  4.125E-06  0.03  200.
 49129.5  9.912E-10 -1.026E-07  3.986E-06  0.04  200.
 49130.0  1.304E-09 -1.371E-07  5.330E-06  0.04  200.
 49130.5  2.458E-09 -2.633E-07  1.028E-05  0.04  200.
 49131.0  6.176E-09 -6.564E-07  2.535E-05  0.04  200.
 49131.5  7.807E-09 -8.287E-07  3.190E-05  0.04  200.
 49132.0  4.380E-09 -4.695E-07  1.829E-05  0.04  200.
 49132.5  1.811E-09 -1.975E-07  7.878E-06  0.05  200.
 49133.0  9.323E-10 -1.011E-07  4.094E-06  0.04  200.
 49133.5  5.818E-10 -6.296E-08  2.623E-06  0.05  200.
 49134.0  4.104E-10 -4.409E-08  1.898E-06  0.05  200.
 49134.5  3.139E-10 -3.318E-08  1.499E-06  0.04  200.
 49135.0  2.608E-10 -2.789E-08  1.354E-06  0.05  200.
 49135.5  2.271E-10 -2.411E-08  1.267E-06  0.05  200.
 49136.0  2.135E-10 -2.333E-08  1.351E-06  0.06  200.
 49136.5  2.114E-10 -2.387E-08  1.540E-06  0.06  200.
 49137.0  2.097E-10 -2.301E-08  1.738E-06  0.06  200.
 49137.5  2.019E-10 -1.816E-08  1.886E-06  0.05  200.
 49138.0  1.910E-10 -8.456E-09  2.292E-06  0.03  200.
 49138.5  1.692E-10  1.796E-08  3.815E-06  0.02  220.
 49139.0 -4.365E-11  2.304E-07  1.632E-05  0.01  200.
 49139.5 -8.441E-10  1.083E-06  6.085E-05  0.01  220.
 49140.0 -2.100E-09  2.151E-06  1.366E-04  0.01  220.
 49140.5  4.451E-10  1.059E-08  5.342E-06  0.01  200.
 49141.0  8.494E-10 -5.894E-08  4.131E-06  0.02  200.
 49141.5  1.918E-09 -1.610E-07  6.773E-06  0.01  200.
 49142.0  4.041E-09 -3.536E-07  1.333E-05  0.02  200.
 49142.5  3.039E-09 -2.649E-07  9.843E-06  0.02  200.
 49143.0  1.636E-09 -1.463E-07  5.637E-06  0.02  200.
 49143.5  1.524E-09 -1.399E-07  5.373E-06  0.02  200.
 49144.0  2.619E-09 -2.477E-07  9.341E-06  0.02  200.
 49144.5  6.270E-09 -6.008E-07  2.242E-05  0.03  200.
 49145.0  6.407E-09 -6.120E-07  2.274E-05  0.02  200.
 49145.5  3.093E-09 -2.955E-07  1.105E-05  0.03  200.
 49146.0  1.336E-09 -1.269E-07  4.821E-06  0.03  200.
 49146.5  7.354E-10 -6.870E-08  2.660E-06  0.02  200.
 49147.0  4.841E-10 -4.437E-08  1.758E-06  0.02  200.
 49147.5  3.616E-10 -3.269E-08  1.336E-06  0.02  200.
 49148.0  2.982E-10 -2.661E-08  1.115E-06  0.02  200.
 49148.5  2.660E-10 -2.320E-08  9.973E-07  0.02  200.
 49149.0  2.596E-10 -2.232E-08  9.828E-07  0.02  200.
 49149.5  2.735E-10 -2.255E-08  9.994E-07  0.02  200.
 49150.0  3.227E-10 -2.603E-08  1.162E-06  0.01  200.
 49150.5  4.398E-10 -3.445E-08  1.495E-06  0.02  200.
 49151.0  7.574E-10 -6.000E-08  2.531E-06  0.01  200.
 49151.5  1.471E-09 -1.181E-07  4.856E-06  0.02  200.
 49152.0  1.556E-09 -1.170E-07  5.556E-06  0.02  200.
 49152.5  2.642E-09 -1.537E-07  1.042E-05  0.02  200.
 49153.0  2.938E-09  2.213E-06  7.445E-05  0.01  200.
 49153.5  3.634E-09 -1.503E-07  1.623E-05  0.01  200.
 49154.0  1.416E-09  1.605E-07  1.142E-05  0.01  200.
 49154.5  8.768E-10 -5.142E-08  3.612E-06  0.01  200.
 49155.0  7.309E-10 -5.324E-08  2.627E-06  0.01  200.
 49155.5  1.008E-09 -8.003E-08  3.219E-06  0.01  200.
 49156.0  2.151E-09 -1.766E-07  6.380E-06  0.02  200.
 49156.5  1.912E-09 -1.588E-07  5.741E-06  0.01  200.
 49157.0  7.901E-10 -6.467E-08  2.415E-06  0.01  200.
 49157.5  4.504E-10 -3.715E-08  1.454E-06  0.02  200.
 49158.0  4.076E-10 -3.364E-08  1.311E-06  0.01  200.
 49158.5  5.364E-10 -4.435E-08  1.663E-06  0.01  200.
 49159.0  3.133E-10 -2.553E-08  9.822E-07  0.01  200.
 49159.5  1.748E-10 -1.434E-08  5.965E-07  0.02  200.
 49160.0  1.212E-10 -9.983E-09  4.414E-07  0.02  200.
 49160.5  9.416E-11 -7.834E-09  3.638E-07  0.02  200.
 49161.0  7.732E-11 -6.402E-09  3.073E-07  0.02  200.
 49161.5  6.601E-11 -5.544E-09  2.770E-07  0.02  200.
 49162.0  5.775E-11 -4.890E-09  2.522E-07  0.02  200.
 49162.5  5.140E-11 -4.417E-09  2.356E-07  0.02  200.
 49163.0  4.633E-11 -4.025E-09  2.211E-07  0.02  200.
 49163.5  4.176E-11 -3.564E-09  2.007E-07  0.02  200.
 49164.0  3.850E-11 -3.350E-09  1.937E-07  0.02  200.
 49164.5  3.567E-11 -3.159E-09  1.889E-07  0.03  200.
 49165.0  3.335E-11 -3.013E-09  1.853E-07  0.03  200.
 49165.5  3.105E-11 -2.798E-09  1.769E-07  0.03  200.
 49166.0  2.898E-11 -2.596E-09  1.691E-07  0.03  200.
 49166.5  2.750E-11 -2.518E-09  1.685E-07  0.03  200.
 49167.0  2.602E-11 -2.397E-09  1.655E-07  0.03  200.
 49167.5  2.490E-11 -2.349E-09  1.669E-07  0.03  200.
 49168.0  2.343E-11 -2.155E-09  1.589E-07  0.03  200.
 49168.5  2.253E-11 -2.117E-09  1.606E-07  0.03  200.
 49169.0  2.171E-11 -2.074E-09  1.625E-07  0.03  200.
 49169.5  2.076E-11 -1.977E-09  1.609E-07  0.03  200.
 49170.0  1.999E-11 -1.917E-09  1.621E-07  0.03  200.
 49170.5  1.935E-11 -1.866E-09  1.632E-07  0.04  200.
 49171.0  1.893E-11 -1.867E-09  1.681E-07  0.04  200.
 49171.5  1.838E-11 -1.823E-09  1.711E-07  0.04  200.
 49172.0  1.772E-11 -1.735E-09  1.723E-07  0.04  200.
 49172.5  1.757E-11 -1.773E-09  1.804E-07  0.04  200.
 49173.0  1.735E-11 -1.790E-09  1.892E-07  0.04  200.
 49173.5  1.694E-11 -1.734E-09  1.933E-07  0.04  200.
 49174.0  1.678E-11 -1.742E-09  2.030E-07  0.05  200.
 49174.5  1.681E-11 -1.796E-09  2.172E-07  0.04  200.
 49175.0  1.660E-11 -1.757E-09  2.264E-07  0.05  200.
 49175.5  1.658E-11 -1.764E-09  2.411E-07  0.04  200.
 49176.0  1.664E-11 -1.772E-09  2.573E-07  0.05  200.
 49176.5  1.681E-11 -1.804E-09  2.798E-07  0.04  220.
 49177.0  1.726E-11 -1.885E-09  3.084E-07  0.05  220.
 49177.5  1.761E-11 -1.906E-09  3.389E-07  0.05  220.
 49178.0  1.825E-11 -1.955E-09  3.776E-07  0.05  220.
 49178.5  1.904E-11 -2.038E-09  4.311E-07  0.05  220.
 49179.0  2.035E-11 -2.183E-09  5.013E-07  0.06  220.
 49179.5  2.197E-11 -2.320E-09  5.947E-07  0.06  220.
 49180.0  2.406E-11 -2.423E-09  7.194E-07  0.06  220.
 49180.5  2.698E-11 -2.556E-09  9.060E-07  0.05  220.
 49181.0  3.081E-11 -2.478E-09  1.199E-06  0.05  220.
 49181.5  2.820E-11  4.586E-09  2.383E-06  0.03  220.
 49182.0  4.321E-11 -5.859E-10  2.464E-06  0.05  220.
 49182.5  5.145E-11  4.513E-09  4.137E-06  0.04  220.
 49183.0  4.379E-11  3.124E-08  9.382E-06  0.03  220.
 49183.5 -3.550E-10  3.965E-07  5.882E-05  0.01  200.
 49184.0 -7.035E-10  7.252E-07  9.887E-05  0.01  220.
